EXPLAIN
TAG	EISPOT
TITLE	LABEL	Potentiostatic EIS	Test Identifier
DATE	LABEL	2/6/2024	Date
TIME	LABEL	12:48:45	Time
NOTES	NOTES	1	Notes...
	
PSTAT	PSTAT	IFC1010-20135 JB	Potentiostat
VDC	POTEN	0.00000E+000	T	DC Voltage (V)
FREQINIT	QUANT	1.50000E+006	Initial Freq. (Hz)
FREQFINAL	QUANT	1.00000E-001	A Real Number
PTSPERDEC	QUANT	1.00000E+001	Points/decade
VAC	QUANT	1.00000E+000	AC Voltage (mV rms)
AREA	QUANT	1.00000E+000	Sample Area (cm^2)
SPEED	SELECTOR	1	Optimize for:
DRIFTCOR	SELECTOR	0	Drift Correction
THD	SELECTOR	1	THD
ZGUESS	QUANT	1.00000E+002	Estimated Z (ohms)
EOC	QUANT	-3.61446E-005	Open Circuit (V)
SEQUENCER	TOGGLE	TRUE	Run as Sequence
PSTATMODEL	IQUANT	64	Pstat Model
PSTATSECTION	LABEL	IFC1010-20135	Pstat Section
PSTATSERIALNO	LABEL	20135	Pstat Serial Number
CTRLMODE	IQUANT	1	Control Mode
ELECTROMETER	IQUANT	0	RE=0 or CS=1
IESTAB	IQUANT	0	I/E Stability
CASPEED	IQUANT	3	Control Amp Speed
CONVENTION	IQUANT	1	Current Convention
ICHRANGE	IQUANT	2	Ich Range
ICHRANGEMODE	TOGGLE	F	Ich Auto Range
ICHOFFSETENABLE	TOGGLE	T	Ich Offset Enable
ICHOFFSET	QUANT	0	Ich Offset (V)
ICHFILTER	IQUANT	4	Ich Filter
VCHRANGE	IQUANT	2	Vch Range
VCHRANGEMODE	TOGGLE	F	Vch Auto Range
VCHOFFSETENABLE	TOGGLE	T	Vch Offset Enable
VCHOFFSET	QUANT	0	Vch Offset (V)
VCHFILTER	IQUANT	4	Vch Filter
IERANGELOWERLIMIT	IQUANT	4	I/E Range Lower Limit
IERANGEMODE	TOGGLE	F	I/E AutoRange
IERANGE	IQUANT	11	I/E Range
ACHSELECT	IQUANT	0	Ach Select
ACHRANGE	IQUANT	2	Ach Range
ACHOFFSETENABLE	TOGGLE	F	Ach Offset Enable
ACHOFFSET	QUANT	0	Ach Offset (V)
ACHFILTER	IQUANT	1	Ach Filter
SENSECABLEID	IQUANT	13	Sense Cable ID
PWRCABLEID	IQUANT	13	Power Cable ID
DCCALDATE	LABEL	1/30/2024	DC Calibration Date
ACCALDATE	LABEL	1/10/2018	AC Calibration Date
FRAMEWORKVERSION	LABEL	7.10.3	Framework Version
INSTRUMENTVERSION	LABEL	4.91	Instrument Version
COMMVERSION	LABEL	3.10	Communications Version
CPUPLDVERSION	LABEL	2.22	CPU PLD Version
CTRLPLDVERSION	LABEL	0.00	CTRL PLD Version
PSTATPLDVERSION	LABEL	0.00	PSTAT PLD Version
ZCURVE	TABLE
	Pt	Time	Freq	Zreal	Zimag	Zsig	Zmod	Zphz	Idc	Vdc	IERange	Imod	Vmod	Temp	Ithd	Vthd	IHr1	IHi1	VHr1	VHi1	IHr2	IHi2	VHr2	VHi2	IHr3	IHi3	VHr3	VHi3	IHr4	IHi4	VHr4	VHi4	IHr5	IHi5	VHr5	VHi5	IHr6	IHi6	VHr6	VHi6	IHr7	IHi7	VHr7	VHi7	IHr8	IHi8	VHr8	VHi8	IHr9	IHi9	VHr9	VHi9	IHr10	IHi10	VHr10	VHi10
	#	s	Hz	ohm	ohm	V	ohm	°	A	V	#	A	V	°C	#	#	A	A	V	V	A	A	V	V	A	A	V	V	A	A	V	V	A	A	V	V	A	A	V	V	A	A	V	V	A	A	V	V	A	A	V	V	A	A	V	V
	0	4	1500059	4.779827	0.6098806	1	4.818579	7.271347	1.225559E-006	-0.000391	9	0.0001876	0.0009926	1466.708	0.0029847	0.0073948	-0.00594	0.015911	-0.0200605	0.0875673	-2.979462E-005	-3.811722E-005	-0.0003027	-0.0002408	-9.17753E-007	-7.00992E-006	0.0001023	0.0001691	6.045055E-006	7.852521E-006	0.0003343	0.000151	-1.939145E-006	1.64769E-006	2.510543E-005	-0.0000984	-4.913615E-006	3.511628E-006	-0.0001035	8.011868E-005	2.106404E-006	-1.87578E-006	3.25492E-005	-8.709523E-005	9.567229E-007	1.818924E-006	-2.293236E-005	-0.0001321	6.348346E-007	-2.831443E-006	-6.890932E-005	-3.975378E-005	2.50584E-006	3.299221E-006	-0.0001976	0.0001365
	1	6	1191504	4.62349	0.5410541	1	4.65504	6.674559	1.328664E-006	-0.0003259	9	0.0002397	0.0011842	1466.889	0.0022397	0.0056289	-0.0166285	0.0139328	-0.0763992	0.0751715	3.917748E-005	1.053908E-006	0.0002929	0.0002404	9.846408E-006	-1.148737E-005	-0.0002526	0.0001824	1.108737E-005	-5.907762E-006	8.099619E-005	2.430211E-005	5.858456E-007	-5.229377E-007	0.0001338	2.76143E-005	9.716794E-006	3.508176E-007	0.0002089	-1.697324E-005	-1.41043E-006	-8.086209E-007	4.447368E-005	4.993327E-005	-7.984346E-007	5.310285E-007	0.0001088	-5.904569E-005	1.416338E-006	-1.636884E-005	-7.263659E-005	-6.599586E-005	1.188513E-006	8.240808E-006	6.340037E-005	-0.0001419
	2	7	946464.9	4.565366	0.4008843	1	4.582933	5.018265	1.328048E-006	-0.0002774	9	0.0002505	0.0011922	1467.612	0.0019339	0.0049111	-0.0176532	0.0142337	-0.0794874	0.0729712	1.648624E-005	3.441073E-005	0.0002553	0.0003202	-4.531919E-006	-1.632922E-005	-7.818856E-005	0.0001048	-1.774435E-006	-1.291992E-007	-0.000158	-2.06467E-005	-5.977695E-006	-5.833573E-007	-2.291214E-005	-2.464648E-005	2.333956E-006	-2.635345E-006	7.740164E-005	-1.321556E-005	-3.821399E-006	5.494498E-006	-1.666212E-005	-0.0001059	-1.337343E-006	-2.160312E-006	0.0001011	7.919065E-005	1.882813E-006	-1.582252E-006	0.0001011	9.206147E-005	5.526432E-006	-6.38389E-006	3.830614E-005	-0.0001233
	3	9	751816.4	4.512188	0.2712222	1	4.520332	3.439842	2.23708E-006	-0.0002452	9	0.0002617	0.001211	1466.889	0.0019835	0.0051885	0.0216797	0.0095326	0.1027479	0.0381769	-2.472072E-005	-2.228689E-005	-0.0002979	-0.0003477	1.096392E-005	-1.841397E-005	-0.0001471	-0.0001791	2.975765E-006	-1.146536E-005	5.955584E-005	1.399605E-005	7.007282E-006	1.204317E-006	3.390945E-005	-5.922837E-005	1.299908E-006	4.855156E-006	-4.727211E-005	1.860291E-005	-4.151277E-006	-6.062125E-006	-0.0000952	-8.618882E-005	-2.185712E-006	1.60511E-005	7.054E-005	-2.085304E-005	3.93331E-006	3.867885E-006	8.078916E-005	3.120047E-006	-7.563504E-006	4.393085E-006	4.863506E-005	-0.0001353
	4	10	597246.1	4.496593	0.1795506	1	4.500177	2.286627	2.160584E-006	-0.0002346	9	0.0002693	0.0012301	1467.612	0.0020682	0.0058467	-0.0057662	-0.0236839	-0.0320687	-0.1066154	1.607716E-005	-2.997488E-005	0.0001549	-0.0002125	-7.043215E-006	-2.961565E-005	-0.0003702	6.755674E-005	3.026798E-009	8.800787E-006	0.000109	-0.0001014	-3.385155E-006	-8.508186E-006	0.0001671	0.000228	-1.636276E-006	-2.614223E-006	-6.899352E-005	2.853281E-005	-3.252238E-006	6.503251E-007	-0.000262	-0.0001132	6.026152E-006	3.764217E-006	-5.339844E-005	9.348523E-005	-4.156254E-006	-5.464594E-006	4.881469E-005	3.392831E-005	-4.881456E-006	1.243057E-005	-8.045673E-005	4.710245E-005
	5	12	474433.6	4.497069	0.0336576	1	4.497195	0.4288125	2.211772E-006	-0.0002277	9	0.0002735	0.0012414	1467.431	0.0014877	0.0049097	0.0202177	0.0142798	0.0958609	0.0586087	-1.819483E-005	-2.191169E-005	-3.989542E-005	-0.0001859	-4.169281E-006	1.497231E-005	-0.0001883	-8.222613E-005	1.443531E-005	2.683544E-006	2.605509E-005	0.0001149	-7.624623E-007	-3.200098E-006	7.354247E-005	0.0002878	-1.380366E-006	-8.65639E-007	-0.0001376	0.0001956	-3.413567E-006	2.932938E-006	3.608133E-005	6.846327E-006	1.97129E-006	-1.461012E-007	-0.0001038	-0.0001397	2.788474E-006	1.856592E-006	0.0001824	-1.366728E-005	-3.973823E-006	-4.792631E-006	3.853673E-005	8.391973E-006
	6	13	376816.4	4.483944	-0.0618683	1	4.484371	-0.7905023	2.207339E-006	-0.0002287	9	0.0002765	0.0012472	1467.07	0.0024846	0.0047522	0.0219862	0.0119536	0.1028014	0.0466346	-2.489968E-005	-2.204551E-005	-3.123429E-005	-0.0002526	2.296965E-006	4.116415E-005	-0.0001371	-0.0001589	2.291461E-006	3.929603E-006	-3.230811E-005	0.0001433	5.063088E-006	-2.248594E-005	1.888185E-005	0.0001065	-9.47436E-006	-1.21709E-005	-5.429711E-005	-9.135682E-005	1.91712E-006	5.454989E-006	0.0001542	0.0001702	2.275556E-006	1.136769E-005	5.740905E-005	2.220672E-005	-4.863477E-006	-6.369258E-006	3.054945E-005	-0.000245	4.205678E-006	-4.56362E-006	-4.297298E-005	-0.0001225
	7	15	299355.5	4.486588	-0.1727463	1	4.489913	-2.204961	1.325785E-006	-0.0002352	9	0.000279	0.0012572	1467.431	0.0026397	0.0051521	-0.0241415	-0.0073963	-0.1112245	-0.0240069	-2.516947E-005	-9.111188E-006	-0.0001149	-8.464815E-005	1.425114E-005	-4.83429E-005	0.0003292	0.0001886	1.242435E-005	2.456931E-006	2.665387E-005	3.2251E-005	-2.37058E-006	1.732736E-005	3.630924E-005	-0.0000953	-1.603086E-005	-2.046181E-008	-0.0003057	-6.353826E-005	3.660709E-006	-8.069169E-006	-0.0001664	-0.0001152	-1.01167E-005	1.296762E-005	-0.0001393	5.371671E-005	-7.594606E-006	-1.716166E-006	-9.693992E-006	-7.807057E-005	-7.160198E-006	-1.219043E-006	2.925692E-006	-1.592562E-005
	8	16	237832	4.49807	-0.2766071	1	4.506567	-3.51895	1.18349E-006	-0.0002402	9	0.0002802	0.0012657	1467.522	0.0029762	0.0047963	0.0002575	0.0253601	0.0123768	0.113889	7.090886E-006	-1.649819E-005	4.852563E-005	2.438895E-005	6.550192E-005	-1.425273E-005	7.522944E-005	0.0002172	4.698566E-006	-2.360524E-006	0.0002061	0.000223	2.034201E-005	-1.530822E-005	-0.0002335	-5.702315E-005	6.383194E-006	1.6423E-006	-5.907467E-006	-0.0001203	2.898014E-006	-7.720767E-006	-6.5287E-005	-0.0002101	1.784254E-006	3.378751E-006	-4.917396E-005	7.019879E-005	5.689595E-006	1.683453E-006	0.0001264	-0.0000992	3.184628E-006	5.828493E-006	-7.332886E-006	1.369393E-006
	9	17	188847.7	4.517814	-0.3920476	1	4.534792	-4.959598	2.204344E-006	-0.0002431	9	0.0002814	0.0012782	1467.522	0.0038659	0.0036546	-0.0177024	0.0183178	-0.0702569	0.0919116	8.964329E-006	1.832983E-005	5.000154E-005	0.0001049	-8.421251E-005	3.337792E-005	-0.000287	-1.379282E-005	-2.547262E-006	-1.274624E-005	7.801583E-005	-0.0001003	-8.797121E-006	-2.437738E-005	0.0001166	-6.43675E-006	7.951545E-006	-4.710631E-006	0.0001231	2.440094E-005	4.218343E-006	1.293185E-006	-6.596224E-005	-4.351536E-005	-4.199713E-006	5.374903E-006	2.123817E-005	-1.806639E-005	-6.361182E-006	1.411536E-009	6.027945E-005	9.017513E-005	-5.965777E-006	-2.816727E-006	0.0001015	8.971867E-005
	10	19	150058.6	4.530789	-0.5272938	1	4.561369	-6.638227	2.104843E-006	-0.0002419	9	0.0002827	0.0012905	1466.889	0.0057774	0.0083134	-0.0138204	0.0215299	-0.0488738	0.1060898	5.712835E-006	2.260011E-005	-0.0001025	-1.360987E-005	-0.0001354	2.80525E-005	-0.0007919	-0.0003319	-1.35772E-005	-8.968707E-006	-8.842839E-005	-0.0001919	9.335563E-006	-3.261263E-005	0.0002728	0.0000961	5.092166E-006	-1.003245E-005	-0.0000976	8.518933E-005	5.212205E-007	2.003776E-005	8.943997E-005	8.971847E-005	5.555412E-006	1.801643E-006	-5.179947E-005	6.686681E-005	-5.524476E-006	1.576947E-006	4.01478E-005	0.0001303	-1.131214E-005	5.774767E-006	-5.21312E-005	-7.38288E-005
	11	20	119238.3	4.543201	-0.6705146	1	4.592414	-8.395471	2.12443E-006	-0.0002467	9	0.000287	0.0013189	1467.522	0.0071986	0.006582	0.0156296	0.0207516	0.0864975	0.0822739	2.108973E-005	-2.96533E-005	0.0001579	-5.244933E-005	0.0001423	8.650264E-005	0.0002907	0.0005738	3.475091E-005	-2.687274E-005	0.0001417	-9.240613E-005	2.098323E-006	5.456778E-005	-0.0002806	0.0001621	-1.798793E-005	8.327209E-006	4.773556E-005	7.482431E-005	-7.84723E-006	1.604174E-005	-5.959369E-005	-6.760643E-005	-1.161248E-005	4.251835E-006	-4.324416E-005	7.027552E-005	-1.009892E-005	4.391196E-006	0.0001269	3.122698E-005	-2.937069E-006	2.022284E-006	-5.001595E-005	4.699032E-006
	12	22	94746.09	4.545482	-0.8617694	1	4.626451	-10.73519	1.910309E-006	-0.0002484	9	0.0002845	0.0013168	1466.889	0.0034577	0.0033557	-0.0206579	-0.0153744	-0.1079371	-0.0505322	1.487915E-006	-1.099918E-005	2.975667E-005	1.657673E-005	3.51296E-005	-6.747683E-005	0.0002487	-9.111665E-005	-9.469078E-006	6.985691E-006	6.647059E-005	7.124437E-005	2.025181E-005	2.96259E-005	-0.0001121	-7.469406E-005	1.725406E-005	4.207192E-006	0.0001872	5.912047E-005	-1.169482E-005	7.895287E-006	-0.000099	-6.814779E-006	2.865883E-006	-4.951799E-006	3.880705E-006	8.475286E-005	4.114219E-006	3.600726E-007	-2.375533E-005	1.968048E-005	-4.813804E-006	1.985871E-006	5.568838E-005	3.677304E-005
	13	23	75292.97	4.584462	-1.115982	1	4.718338	-13.68125	7.722193E-007	-0.00025	9	0.0002764	0.0013044	1467.522	0.0011227	0.0036342	0.0022089	0.0249191	0.0392379	0.1113542	1.567078E-005	-9.601606E-006	-7.237448E-005	-0.0001805	1.391308E-005	7.585004E-006	-4.313084E-005	-4.884439E-006	-4.844996E-006	-3.012559E-006	-3.900648E-005	2.297305E-005	1.727414E-006	-9.972836E-006	7.13942E-005	-0.0001826	-3.477022E-006	2.019486E-006	4.989508E-005	0.0001977	4.899255E-006	-7.469645E-007	0.0001887	4.590157E-005	2.366029E-006	1.874134E-006	1.503463E-005	8.525827E-005	2.660527E-007	-1.003246E-006	4.437668E-005	0.000111	-2.53992E-006	-2.749199E-006	5.129992E-005	1.435535E-005
	14	25	59824.22	4.648093	-1.416852	1	4.859242	-16.9525	1.651694E-006	-0.000248	9	0.0002704	0.0013142	1466.889	0.0009334	0.0033955	-0.0188444	0.015618	-0.0645546	0.0999066	1.783919E-006	3.140762E-006	0.0001203	-2.585352E-006	-5.953859E-006	-1.663719E-005	-0.0001002	0.0001687	-4.352188E-007	2.304572E-006	-8.635538E-005	-0.0001319	3.220557E-006	6.114758E-006	-7.647789E-006	8.295989E-005	9.602081E-007	3.291439E-006	1.070142E-005	-2.798112E-005	1.316162E-006	-7.360272E-006	8.397159E-005	-0.0000997	3.469351E-006	7.822528E-007	-6.17368E-006	-0.0001297	-2.544177E-006	-7.371245E-006	-8.7751E-005	-0.0000953	-1.288394E-006	7.61298E-007	0.0001518	-6.122609E-005
	15	26	47519.53	4.719776	-1.757217	1	5.036278	-20.42077	8.165492E-007	-0.0002515	9	0.0002655	0.001337	1467.612	0.0011075	0.0046653	-0.0232972	0.0058726	-0.0991425	0.069389	2.194763E-006	-4.240444E-006	5.126471E-005	1.405424E-005	-5.866169E-007	-9.571815E-006	6.125984E-005	2.908309E-005	-2.976551E-006	-2.670276E-008	0.0002523	-2.696074E-005	-8.411736E-008	-1.691835E-006	2.750894E-005	-5.582349E-005	-4.508796E-006	-1.602459E-006	-0.0001303	4.3734E-005	-6.527103E-006	3.389869E-006	-8.503512E-005	-4.021335E-005	-1.132723E-005	1.714483E-005	-4.525536E-005	0.0002439	-7.66074E-006	-3.399765E-007	-0.0002432	-0.0001472	2.473753E-006	-4.160292E-006	-0.0002699	-9.838143E-006
	16	28	37792.97	4.819347	-2.177635	1	5.288497	-24.31596	7.711587E-007	-0.0002528	9	0.0002576	0.0013623	1466.98	0.0009402	0.003359	0.0153648	-0.0175349	0.035179	-0.1181793	6.464252E-006	1.083179E-006	-6.293044E-005	-2.685034E-005	5.755355E-006	9.21583E-006	-4.411265E-005	-8.918717E-006	3.650202E-006	-8.915479E-006	2.66657E-005	-0.000224	-6.845706E-006	2.505898E-006	-2.446129E-005	1.631647E-005	-3.298329E-006	-1.812558E-006	0.000127	6.326755E-005	9.555042E-007	-1.860768E-006	0.0001332	8.137804E-005	-8.18931E-007	8.40213E-006	-8.169833E-005	-0.0001855	2.675137E-006	1.331835E-006	-0.000122	7.718874E-005	5.123642E-006	6.969109E-006	-6.869799E-005	4.388802E-005
	17	29	29941.41	4.960515	-2.705912	1	5.650546	-28.61204	7.116296E-007	-0.0002555	9	0.0002479	0.0014011	1467.431	0.0011162	0.0037118	0.0186923	-0.0124176	0.0586071	-0.112453	3.8383E-006	7.616769E-006	-0.0001358	6.87247E-005	-3.740862E-006	1.134709E-005	-6.99024E-005	-6.992963E-005	4.691479E-006	7.702074E-007	-8.10653E-005	9.402436E-005	-2.596498E-006	3.872607E-006	6.56714E-005	6.697264E-005	3.244553E-006	-4.974784E-006	7.440278E-005	-0.0003153	-3.161549E-006	-3.002002E-006	-4.235115E-005	0.0001592	-1.536042E-006	-9.938312E-006	2.64743E-005	3.673599E-005	9.752082E-006	-7.359196E-007	-0.0001112	-0.0001306	1.108565E-007	1.079554E-005	7.855066E-006	2.752402E-005
	18	31	23847.66	5.152819	-3.330087	1	6.135228	-32.87317	1.656616E-006	-0.0002506	9	0.0002278	0.0013975	1467.577	0.0012753	0.0044184	-0.0005033	-0.0206104	-0.0716128	-0.1042662	8.258081E-006	-1.37178E-006	-0.0003415	0.0001264	-9.045879E-006	-6.861855E-006	-0.0001468	8.328314E-005	4.540521E-006	-1.911569E-006	-3.167269E-005	-0.0002097	2.243818E-006	7.084018E-006	8.170924E-005	-8.32294E-005	3.392634E-006	2.947389E-006	3.644463E-005	-6.753993E-005	-1.104106E-005	1.638924E-006	4.275629E-005	0.0001056	7.769559E-006	-5.636533E-006	0.0001845	-4.680805E-005	-1.693072E-006	9.439085E-006	-7.223863E-005	3.736687E-005	8.88222E-006	-2.252666E-006	-0.0001459	0.0000985
	19	32	18925.78	5.428483	-4.08097	1	6.791372	-36.93474	7.669746E-007	-0.0002524	9	0.0002001	0.0013591	1467.341	0.0013972	0.0032922	0.0175798	-0.0043586	0.0773673	-0.0956303	-1.237219E-005	8.547533E-006	0.0001131	2.733053E-006	-5.725889E-007	-1.05186E-005	-3.143086E-005	-0.0001604	8.524978E-006	2.750079E-006	0.0001166	-0.0001044	-7.509662E-007	8.584611E-007	7.29473E-005	4.228379E-006	3.863679E-007	3.083871E-006	7.343321E-005	0.0001138	6.843547E-006	5.208363E-006	7.401349E-005	0.0001244	-3.837814E-006	1.840017E-006	-7.772912E-005	-0.0000989	6.360526E-006	-5.598123E-007	-0.0001698	-3.48217E-005	1.311278E-006	-8.806762E-006	8.660706E-005	4.450872E-005
	20	33	15058.59	5.816488	-4.972795	1	7.652465	-40.52872	1.578975E-006	-0.0002483	9	0.0001596	0.001221	1467.612	0.001316	0.0029757	-0.011534	-0.0086894	-0.110283	0.0070697	4.637841E-007	-1.397275E-007	-0.0000989	4.928165E-005	-1.282801E-005	-2.396701E-006	6.691786E-006	6.954794E-005	-7.347248E-006	-1.244025E-006	-5.821046E-005	7.699715E-005	2.703557E-006	-9.998404E-007	-5.891361E-005	-2.755624E-005	-8.342323E-007	1.127304E-006	3.868854E-005	3.531436E-005	-1.868684E-006	-9.081051E-007	-1.72935E-006	2.946926E-005	-3.233291E-007	6.857175E-006	7.602945E-005	0.0000971	-3.499082E-006	7.038892E-006	5.918834E-005	0.0001034	2.514149E-006	2.29101E-006	0.0002033	-5.611662E-005
	21	35	11863.43	6.357495	-6.059819	1	8.782889	-43.62673	-7.756884E-007	-0.0001502	9	0.0001171	0.0010283	1466.98	0.0029207	0.0052597	0.0071948	0.0077794	0.0928937	0.0056888	-5.543881E-007	-4.071132E-006	-0.000102	-5.503698E-005	1.310178E-005	6.068527E-006	-0.0001171	-0.0001172	-4.681076E-006	-5.572584E-006	0.0001137	-0.0001481	9.120879E-006	1.869165E-006	-6.123738E-005	0.0001764	-1.130843E-005	-7.179865E-006	-0.0001425	-9.172219E-005	4.785485E-006	8.242525E-006	-3.744936E-006	1.941028E-005	-5.532639E-006	9.751457E-006	-7.492014E-005	2.731662E-005	-5.737457E-006	1.024399E-005	0.0001075	0.0002761	-7.294891E-006	2.403225E-006	-5.284139E-005	-5.48403E-005
	22	36	9432.87	7.092262	-7.222143	1	10.12223	-45.51986	2.507081E-007	0.0001259	9	0.0000973	0.0009848	1467.612	0.0025064	0.002414	0.008673	-0.0015221	0.0504696	-0.0734704	-7.210082E-006	9.256391E-006	-1.721818E-005	4.024577E-005	-9.253487E-006	-7.620384E-006	-6.605013E-005	-7.875567E-005	-3.132653E-006	3.149969E-006	6.606308E-005	7.091439E-006	7.091385E-007	-4.955718E-006	-1.710799E-005	-4.455931E-005	-6.717827E-006	-4.431569E-006	-4.009013E-005	1.961406E-005	-1.347573E-006	4.869127E-006	-6.286166E-005	6.884476E-005	4.512456E-006	5.964186E-006	-8.766631E-005	-1.689058E-005	6.276423E-007	-1.064985E-006	-4.400593E-005	5.664819E-005	2.293474E-006	-2.810943E-006	1.082803E-005	-5.662896E-005
	23	38	7558.594	8.002889	-8.467326	1	11.65083	-46.61523	-2.18547E-008	5.205348E-005	9	7.974134E-005	0.0009291	1467.161	0.0029723	0.0031161	-0.0057779	0.004325	-0.0095732	0.0835437	-4.146002E-006	-3.016907E-006	-1.164145E-005	5.729195E-006	3.156078E-006	-1.191745E-005	-3.809318E-005	-6.469777E-005	3.975772E-006	1.962517E-006	6.35728E-005	1.547288E-005	7.711336E-006	3.771151E-006	6.565943E-005	2.273584E-005	2.135734E-006	9.871319E-006	3.483577E-005	0.0001469	-7.83497E-007	4.879081E-006	0.0001025	3.826279E-005	-4.596514E-007	-4.85631E-006	1.567426E-005	-8.687556E-005	-3.018504E-007	-3.376402E-006	1.772904E-005	-2.129991E-006	4.929985E-006	-1.598255E-006	-3.521671E-005	-0.0000982
	24	39	5960.648	9.25311	-9.885	1	13.54006	-46.89107	2.723415E-007	0.0001242	9	7.031274E-005	0.0009521	1466.98	0.0032299	0.0024042	0.0020935	-0.0060098	-0.0400694	-0.0762872	-1.991204E-006	8.812458E-006	4.50458E-005	4.913885E-005	9.06919E-006	5.096481E-007	9.624811E-006	9.668292E-006	2.645149E-006	5.712638E-006	7.274367E-005	-1.663575E-006	6.511516E-006	-1.510631E-006	4.951202E-005	4.006736E-005	-1.735814E-006	-7.138756E-006	1.222768E-006	-7.263205E-005	5.707581E-006	3.855544E-006	2.494629E-005	9.206298E-006	-2.952998E-006	-4.048147E-006	8.368905E-005	5.908331E-005	-1.668414E-006	-3.593364E-006	-6.062473E-005	-3.983582E-005	1.711014E-006	-5.37834E-006	6.85933E-005	-4.99143E-005
	25	41	4746.094	10.76785	-11.28612	1	15.59882	-46.34622	-4.141339E-008	5.238585E-005	9	6.100315E-005	0.0009516	1467.431	0.0050242	0.002342	0.0030783	0.0045836	0.0848841	0.0145839	3.685745E-006	4.714457E-006	-7.439959E-005	-3.068563E-005	4.988164E-006	1.09542E-005	1.873815E-005	-5.429047E-005	6.826682E-006	3.188252E-006	4.848279E-005	2.790024E-006	-1.558392E-005	9.743067E-006	-3.351508E-005	5.967024E-005	5.44373E-006	-2.634166E-006	9.339533E-005	3.348419E-005	-4.922157E-006	-8.561289E-006	-1.901051E-005	-0.0000976	-8.516364E-007	-7.238307E-006	-2.971018E-005	-4.526924E-005	-6.351839E-007	-8.39602E-007	1.373506E-005	1.56021E-005	1.497047E-006	1.929453E-006	2.704724E-005	5.72385E-006
	26	42	3761.574	12.56649	-12.71706	1	17.87849	-45.34121	2.719248E-007	0.0001249	9	5.559816E-005	0.000994	1466.889	0.0046722	0.0027785	-0.0046381	0.001952	-0.033456	0.0835163	-5.489784E-006	1.335442E-006	-6.267878E-005	9.957614E-006	1.294294E-005	-1.021408E-007	-3.468072E-006	-5.148614E-005	9.051601E-006	2.220807E-006	6.045075E-005	-2.320123E-005	3.971341E-006	-3.916493E-006	-4.005759E-005	-3.199874E-005	2.008688E-006	-8.745327E-006	0.000151	-8.399774E-005	1.150176E-006	6.964752E-006	-9.565615E-006	3.501118E-006	-6.166215E-006	-2.269666E-006	2.436398E-006	-1.658045E-005	2.306879E-006	3.139221E-006	-3.97442E-007	6.364574E-005	-5.225201E-006	-4.399572E-006	-7.546444E-005	-9.476959E-005
	27	43	2993.223	14.55929	-14.04134	1	20.22701	-43.96252	-3.34764E-008	0.0001227	8	6.15137E-005	0.0012443	1467.522	0.0018521	0.0023819	0.0028028	0.0048106	0.1082303	0.0311271	8.408778E-006	-3.259199E-006	3.990304E-005	-0.000234	7.041047E-008	1.119893E-006	-3.871589E-006	1.676276E-005	-4.535273E-007	1.574614E-006	-4.19806E-005	2.475211E-005	2.218781E-006	8.769317E-007	5.577697E-005	-4.799383E-005	3.129013E-007	1.726634E-006	5.973515E-005	1.091656E-005	1.584974E-006	1.632073E-006	5.615293E-007	1.80495E-005	3.171103E-007	-1.103665E-006	-3.133319E-007	3.735628E-005	6.917058E-007	2.023604E-006	1.582231E-005	4.22016E-005	1.248618E-007	1.095935E-006	-9.284763E-006	1.272187E-006
	28	45	2372.685	16.80007	-15.32954	1	22.74285	-42.37948	-7.338073E-009	0.000123	8	4.068395E-005	0.0009253	1466.799	0.0020484	0.003125	0.0027469	0.0024523	0.0837442	-0.0006371	4.558292E-006	-2.037907E-006	-6.542513E-006	-7.793043E-005	3.297493E-006	5.398306E-008	2.940124E-005	-8.044265E-005	-4.377647E-007	2.039211E-006	-6.197218E-006	-6.785498E-005	-9.555698E-008	1.988508E-006	-5.220099E-005	7.820316E-005	-1.247976E-006	6.86543E-007	0.0000958	3.44502E-006	4.499389E-007	1.545617E-006	0.0001152	-4.32187E-005	-1.731398E-006	-8.99785E-007	-6.629635E-005	6.710131E-005	4.369685E-007	-1.000792E-006	-4.138545E-005	1.228231E-005	5.080115E-007	-1.70115E-006	7.568265E-005	-2.726386E-005
	29	46	1886.433	19.16669	-16.51554	1	25.30069	-40.75079	-1.375849E-007	5.185979E-005	8	3.735348E-005	0.0009451	1467.431	0.0017099	0.0031577	0.0019127	-0.0027878	-0.0091636	-0.0850462	-4.21122E-006	5.735824E-007	-0.0001195	2.850214E-005	2.584102E-008	2.53323E-006	0.0001094	4.561152E-007	1.067383E-007	8.805E-008	-4.45518E-005	9.473271E-005	9.208306E-007	2.002384E-006	-2.702611E-005	0.0001352	1.081389E-007	1.336425E-006	2.338528E-005	3.783242E-005	2.789629E-007	4.930407E-007	3.178752E-005	2.749497E-006	1.946028E-007	-6.030697E-007	-5.909615E-005	2.099082E-005	6.566188E-007	-1.753542E-007	4.642259E-005	-2.17472E-005	9.520336E-007	4.16876E-007	-6.803359E-005	4.17062E-005
	30	48	1506.696	21.55381	-17.65898	1	27.86407	-39.32767	-1.849048E-008	5.219027E-005	8	3.496578E-005	0.0009743	1467.341	0.0025489	0.0027888	0.0021613	-0.0023118	0.0059414	-0.0879826	1.61066E-007	-2.329586E-006	8.61584E-005	7.680594E-005	-4.617615E-007	4.603624E-006	2.696062E-006	0.000155	1.911217E-006	-1.408316E-007	5.784666E-005	1.82041E-005	-3.91634E-007	3.270195E-006	-3.59153E-006	-8.300803E-005	5.32101E-007	3.027162E-006	1.521967E-005	1.277612E-005	6.050996E-007	-4.472787E-007	-1.16853E-005	5.954418E-005	-2.629618E-006	-1.021508E-007	-1.284853E-005	1.538568E-005	-1.813987E-007	1.545797E-006	1.076108E-005	2.56864E-005	-1.874956E-006	9.010546E-007	-4.259085E-005	7.407932E-005
	31	49	1185.994	24.2345	-18.85632	1	30.70621	-37.88568	-7.030167E-009	0.0001239	8	3.07377E-005	0.0009438	1467.431	0.0035181	0.0028658	0.0022537	0.0016312	0.0853799	-0.0028281	-1.142375E-006	4.660942E-007	-2.530695E-006	3.158429E-005	6.188093E-006	-2.600018E-006	1.161278E-005	-0.0001114	1.026097E-006	6.60948E-007	1.572733E-005	-7.08009E-005	-5.127479E-006	3.288831E-006	8.521409E-005	0.0001464	1.112374E-006	-7.809798E-007	2.368033E-005	-4.495505E-005	-8.014687E-007	-9.100842E-007	8.500525E-005	-3.379613E-005	1.173145E-006	2.672496E-007	6.385526E-006	-2.736121E-005	6.485279E-007	-1.47683E-006	-1.794961E-005	-1.1025E-005	-1.126991E-006	-1.409409E-006	2.197339E-007	-1.628453E-005
	32	50	948.6607	26.7317	-20.0779	1	33.43211	-36.90982	-4.512842E-008	5.14687E-005	8	2.960691E-005	0.0009898	1467.431	0.0040297	0.0041814	0.002062	0.0017115	0.0894772	0.004466	-7.331642E-007	-6.622359E-007	-4.645494E-005	5.325256E-005	3.272282E-006	2.265193E-006	-2.695411E-005	-0.000168	-7.331874E-007	-3.055956E-006	0.0001096	-0.0001597	-6.044107E-006	3.45616E-006	-4.303695E-005	-7.111359E-005	1.928702E-007	1.200933E-007	-2.129332E-005	0.0001185	-1.130306E-006	1.323679E-008	-8.056593E-005	-2.825094E-005	-1.64819E-006	2.236709E-006	-0.0001066	4.272524E-005	-1.3299E-007	-8.267453E-007	0.000119	4.364923E-005	4.050607E-006	-3.90938E-006	-4.965912E-005	-9.193109E-005
	33	52	752.3148	29.51657	-21.43322	1	36.47754	-35.98498	-3.237081E-008	0.0001226	8	2.676417E-005	0.0009763	1466.799	0.0047366	0.0045037	0.0023538	-0.0005725	0.0572746	-0.0672889	3.227406E-006	1.554747E-006	7.587E-005	0.0001262	-4.810421E-006	-1.725774E-006	-0.0001364	-0.0001446	6.881783E-007	3.126324E-007	-0.0001585	0.0001046	-6.168503E-007	-8.398512E-006	-7.170226E-005	-9.323786E-005	7.472972E-007	2.658737E-006	-6.58742E-006	2.094101E-005	-3.597375E-007	-5.701587E-007	0.0001257	0.0001386	-7.869104E-007	1.816119E-006	1.537859E-005	8.548258E-005	-1.752544E-006	1.786583E-006	-4.04728E-005	-1.058113E-005	-1.465998E-006	8.959373E-007	-1.763029E-005	4.674414E-005
	34	53	599.564	32.2877	-22.93749	1	39.60586	-35.39035	-1.299723E-007	4.980456E-005	8	2.51787E-005	0.0009972	1467.431	0.0035683	0.0035293	0.0001876	-0.0022712	-0.0459735	-0.0776726	-8.598068E-007	-7.95104E-007	-1.986924E-005	2.252916E-005	3.662459E-006	3.903479E-007	-1.988243E-005	-0.000134	-1.03813E-006	5.674419E-007	-7.889351E-005	-1.7919E-005	3.509776E-007	-4.941719E-006	-1.389499E-005	-0.0001049	-3.975015E-006	6.342417E-007	-0.0001469	-6.995817E-005	-1.223304E-006	-1.780466E-006	-7.257332E-007	-0.0001462	2.342767E-007	3.338255E-007	-6.257051E-005	3.955653E-005	-7.510715E-007	-4.062477E-007	-8.398752E-005	1.429208E-005	7.639101E-007	1.702129E-006	-1.141772E-005	-6.146224E-005
	35	55	474.0168	35.26278	-24.71349	1	43.06066	-35.02422	-7.194137E-008	8.309801E-005	8	2.295019E-005	0.0009883	1467.431	0.0037688	0.0039564	0.0016578	0.0012516	0.0893885	0.0033312	-2.043567E-006	2.861834E-007	-9.278419E-006	-1.156703E-006	1.002638E-006	-1.129483E-007	5.454212E-005	-2.603629E-005	-8.862404E-007	7.916988E-007	-8.443872E-005	2.024975E-005	-2.968596E-006	3.484274E-007	-0.0001187	0.0002187	3.147377E-006	-2.264842E-007	9.997166E-006	-3.738085E-005	4.124442E-006	-1.271456E-007	4.799233E-005	-4.452731E-005	4.681006E-007	-3.866219E-006	-1.284538E-005	-0.0001665	1.095868E-007	-1.407445E-006	-3.705268E-006	-0.0000955	4.237845E-007	-1.158214E-006	9.461804E-005	-1.679093E-005
	36	56	377.1552	38.30552	-26.7688	1	46.73202	-34.94676	-7.410495E-008	8.154922E-005	8	2.170235E-005	0.0010142	1466.708	0.0043822	0.0031353	0.0017664	0.0008593	0.0906868	-0.0142354	-1.872655E-006	2.265169E-007	-0.0001016	6.718503E-006	6.748087E-008	5.88263E-007	1.994352E-005	-7.145306E-005	-1.517121E-006	2.223849E-006	1.772514E-005	-1.742074E-005	-1.571677E-006	3.33565E-006	8.13003E-005	0.0001605	5.920947E-007	-2.212417E-006	0.0001354	8.865807E-005	1.132939E-007	-2.587192E-006	-1.760596E-005	-3.785309E-005	9.372434E-007	1.710026E-006	2.356456E-005	-3.492897E-005	8.53126E-007	-6.399649E-007	6.126007E-006	5.649464E-005	3.025762E-007	-5.688577E-006	-2.48123E-005	-2.056241E-005
	37	57	298.2954	41.7033	-29.18112	1	50.89895	-34.9817	-1.425914E-008	2.347836E-005	8	1.92232E-005	0.0009785	1467.341	0.0048484	0.0038279	-0.0015552	0.0007801	-0.0421855	0.077867	1.551303E-006	3.262797E-006	-1.575696E-006	7.953885E-005	3.589666E-006	-1.340215E-006	7.874476E-005	-0.0001473	-7.522477E-007	-3.865808E-007	7.290325E-005	1.684556E-005	3.544064E-006	1.438038E-007	0.0002316	5.829631E-005	-6.116944E-007	-2.848081E-006	-1.473163E-006	-4.101831E-005	1.730134E-006	1.534469E-006	-2.696982E-005	-7.193157E-005	6.676855E-007	1.648591E-006	2.497925E-005	1.829302E-005	-8.714052E-007	1.924012E-006	2.746499E-005	6.261626E-005	-1.465887E-006	2.553794E-006	-6.170802E-005	-3.183468E-005
	38	59	236.7424	45.26284	-31.84644	1	55.34366	-35.1298	-4.253705E-008	8.285941E-005	8	1.814643E-005	0.0010043	1467.329	0.0049389	0.0034815	0.0010678	0.0012479	0.0880552	0.0225591	3.718742E-007	6.805531E-007	-8.459274E-005	5.885842E-006	1.891071E-006	2.237515E-006	0.000105	1.941877E-005	3.351714E-006	1.781757E-006	-5.274855E-005	-9.093202E-006	-3.603946E-006	-1.493807E-006	-0.0001499	-8.755947E-006	1.089731E-006	-1.302398E-006	0.0001067	-8.682512E-005	-1.558792E-006	8.811421E-007	3.330896E-005	-0.0001245	-1.096594E-006	-1.613575E-006	5.243404E-005	-7.672609E-005	2.035505E-006	-2.295598E-006	2.344127E-005	2.298085E-005	2.768316E-006	1.212811E-007	9.338267E-005	4.654657E-005
	39	60	189.0121	49.02881	-34.87512	1	60.16725	-35.42496	1.115916E-008	2.314592E-005	8	1.661045E-005	0.0009994	1466.98	0.0041626	0.0025559	0.0008879	0.0012132	0.085823	0.0285797	-1.352657E-006	9.375417E-007	2.480147E-005	-8.508564E-006	8.334237E-007	5.354432E-007	0.0001121	-8.633454E-005	1.60035E-006	3.659898E-008	2.291129E-005	-1.586171E-005	-2.329531E-006	-1.073328E-006	-0.0001203	2.429134E-005	8.629808E-007	-3.296144E-006	-8.833377E-006	-5.262986E-005	1.405398E-006	-9.410106E-007	1.363043E-005	1.468975E-005	-5.726771E-008	-4.653249E-007	-5.770377E-005	1.097703E-005	6.246E-007	6.977289E-007	3.079744E-005	4.736206E-005	-3.28061E-006	-5.789753E-008	-8.362067E-005	1.247856E-006
	40	61	149.6011	53.452	-38.42159	1	65.82807	-35.70879	-3.923605E-008	2.523246E-005	8	1.513331E-005	0.0009962	1467.341	0.0042928	0.0024131	-0.0006721	0.0011935	0.0098789	0.089623	1.474765E-006	-1.079249E-006	2.547717E-005	-3.707508E-005	5.634279E-007	-2.340319E-006	-7.179491E-005	-6.40129E-005	-1.322543E-006	2.053312E-007	1.730979E-006	2.711327E-006	-3.612787E-006	-2.549891E-007	4.728674E-006	0.0001084	-1.772412E-006	-1.681907E-006	-8.412516E-005	-3.065763E-005	1.51921E-006	8.04343E-007	-1.998921E-005	-5.118457E-005	1.109828E-006	3.872083E-008	-0.0000976	1.961598E-006	5.440295E-007	1.4952E-007	3.830072E-005	-2.257488E-005	-1.236194E-007	-1.974618E-007	-4.163732E-005	-3.282011E-006
	41	63	119.1737	58.00469	-42.60405	1	71.96978	-36.29702	1.215281E-008	2.48257E-005	8	1.368226E-005	0.0009847	1466.708	0.0040687	0.0026832	-0.0002626	-0.0012102	-0.0667627	-0.0590439	-3.95503E-008	1.429182E-006	-1.116854E-005	2.574822E-005	-1.536764E-007	3.947503E-007	-6.007189E-005	-3.614435E-005	7.063427E-007	3.068699E-007	-7.488696E-005	3.079092E-005	3.590376E-007	7.822214E-007	6.556039E-005	-2.696976E-005	-1.027375E-006	2.791185E-007	4.351872E-005	3.980193E-005	9.871062E-007	1.064618E-007	-3.687468E-005	-6.316498E-005	2.757933E-006	1.62931E-007	3.323419E-005	0.0000993	2.442303E-006	1.145296E-006	0.0001083	8.581381E-005	-2.040712E-006	-7.979748E-007	2.978269E-005	-1.196133E-005
	42	64	94.69697	71.14007	-43.92543	1	83.60833	-31.69325	-1.295204E-007	8.624636E-005	8	1.195267E-005	0.0009993	1467.341	0.0074513	0.0040177	0.0002952	-0.0004533	0.0011071	-0.0452116	-1.693238E-006	2.683476E-008	-7.078074E-005	4.102765E-005	8.363568E-007	-7.621023E-007	-4.440492E-005	-3.554518E-005	1.684884E-007	-3.627239E-007	5.824795E-005	-4.977507E-005	-1.776685E-006	1.372569E-006	5.502115E-005	6.676239E-005	1.093778E-006	1.185952E-006	-2.271024E-005	2.503398E-005	-7.359632E-007	-1.317849E-006	3.551191E-006	-6.155738E-005	4.459434E-008	-1.061783E-006	-4.86455E-006	-3.147574E-005	-1.796329E-007	-5.330195E-007	-1.812987E-006	2.985962E-005	7.543958E-007	-2.649677E-008	4.787193E-005	-2.422004E-005
	43	66	75	85.0323	-47.27414	1	97.29	-29.0721	-5.505379E-008	8.814316E-005	8	1.026326E-005	0.0009985	1467.341	0.0094343	0.0047662	0.0002282	-0.0004046	0.0002899	-0.0451866	-2.85875E-006	5.082026E-007	-0.0001201	3.558422E-005	-2.337738E-007	1.163036E-006	5.231491E-005	5.83421E-005	-1.164981E-007	-2.492243E-008	4.26049E-006	2.395823E-005	1.317992E-006	1.014226E-006	-2.192147E-005	2.196297E-005	1.788268E-006	9.156377E-007	9.00265E-005	4.502619E-005	-5.646194E-007	-3.446804E-008	-2.227528E-005	8.537065E-006	-7.957307E-007	-1.163728E-006	-6.328417E-005	4.895854E-005	3.916603E-008	-1.306894E-007	1.527161E-005	7.113259E-005	3.445275E-007	3.187756E-007	-8.820955E-006	2.31802E-005
	44	67	54.50581	80.83252	-59.77358	1	100.5325	-36.48198	-1.538386E-007	2.637257E-005	8	9.95527E-006	0.0010008	1466.799	0.0058351	0.0034605	0.0005465	-0.0007164	0.0013764	-0.0905742	1.353277E-006	7.124974E-007	2.085871E-005	1.408951E-005	-1.51332E-006	1.649113E-006	4.053146E-005	0.0001037	3.24053E-009	1.75422E-006	5.029671E-005	-3.747536E-005	-1.260369E-006	3.735502E-007	-6.374915E-006	2.638562E-005	-6.353326E-007	-3.881758E-007	4.889733E-005	0.0001238	1.195472E-006	-5.25671E-007	-3.128189E-005	-8.732528E-005	1.624649E-006	1.470608E-006	4.462504E-005	7.479635E-006	1.115613E-006	-2.319248E-006	0.0001678	-0.0001147	1.144908E-006	7.025121E-007	6.305132E-005	-8.313554E-005
	45	68	45.95588	83.28053	-66.0652	1	106.3027	-38.42445	-8.888443E-008	2.416846E-005	8	9.400934E-006	0.0009994	1467.341	0.0036716	0.0030118	0.0004931	-0.0006935	-0.00471	-0.0903295	-1.697385E-007	3.553296E-007	-2.772793E-005	-0.0001181	-1.396864E-006	2.147357E-006	3.672452E-006	0.000135	-3.319948E-007	4.249015E-007	-2.541201E-007	2.906957E-005	-2.517563E-007	1.223247E-006	7.599461E-005	6.867063E-005	-3.354463E-007	3.360126E-007	5.951668E-005	-5.576298E-005	-6.159554E-008	4.189403E-007	2.758227E-005	-3.76464E-005	-3.101886E-007	5.291608E-007	2.894193E-005	3.805733E-005	-7.348809E-008	-3.620158E-007	-6.941983E-005	-0.0001045	4.782501E-007	2.141089E-007	5.481803E-005	7.753602E-006
	46	70	37.5	90.26167	-72.76505	1	115.9393	-38.87426	-7.852599E-008	2.289335E-005	8	8.62692E-006	0.0010002	1466.98	0.0037703	0.0029325	0.0004672	-0.0006257	-0.0033247	-0.0904679	-5.417042E-008	4.805395E-007	-6.014441E-005	-6.179007E-005	-4.204786E-007	1.354821E-006	6.778496E-005	3.998593E-007	-2.306879E-007	9.435303E-008	-6.678053E-005	1.552409E-005	-4.316426E-007	1.065593E-006	1.35751E-005	-3.666176E-005	1.068174E-007	3.776138E-007	3.609779E-005	0.000159	2.383745E-007	-7.03889E-007	2.273636E-005	-5.411442E-005	1.322105E-007	2.962913E-007	5.382251E-005	9.029358E-006	5.03695E-007	-1.943177E-006	1.603257E-006	-0.0001299	-4.045793E-007	1.774595E-007	5.344933E-006	4.802401E-005
	47	71	30.04808	98.8791	-81.00839	1	127.8258	-39.32663	-8.795065E-008	2.494999E-005	8	7.818027E-006	0.0009994	1467.431	0.004033	0.0025603	0.0004342	-0.0005587	-0.0022999	-0.090422	-2.748293E-007	5.425065E-007	-4.53509E-005	2.469927E-006	-1.052418E-006	2.021567E-006	2.988808E-005	0.0001647	-3.131368E-007	1.306382E-007	-8.412787E-005	9.930009E-006	-6.075871E-007	8.840736E-007	-3.415723E-005	6.503487E-005	2.142442E-007	3.004797E-007	3.596622E-006	-1.477699E-005	3.305745E-007	6.568268E-007	3.75329E-005	-3.524343E-005	2.152469E-007	3.274909E-007	-5.08401E-005	-2.502211E-005	-3.501074E-007	-9.52041E-008	-5.293454E-005	1.234788E-005	4.026256E-007	4.357587E-007	-3.354514E-005	2.817308E-005
	48	73	23.91582	108.6749	-90.51509	1	141.4327	-39.79084	-7.784244E-008	2.461748E-005	8	7.074754E-006	0.0010006	1466.889	0.0024919	0.0024825	0.0004022	-0.0004982	-0.0013632	-0.0905544	1.152012E-008	2.056002E-007	-5.162955E-005	-2.379062E-005	-1.811932E-007	6.459982E-007	3.644171E-006	5.262105E-005	-1.996814E-007	2.603598E-007	-6.111081E-005	-2.897855E-005	-6.044948E-007	8.977944E-007	1.791849E-005	0.0001098	1.482244E-007	1.914068E-007	8.731272E-005	-2.916051E-005	3.850755E-007	-4.665431E-007	1.612807E-005	-6.844863E-005	2.959437E-007	3.536572E-007	7.814738E-005	4.595606E-005	4.768481E-008	2.508341E-007	2.809727E-005	-9.43053E-006	-2.643064E-007	-4.701406E-008	4.945023E-005	-5.127592E-005
	49	74	18.8253	120.2134	-101.7366	1	157.4852	-40.24124	-6.596532E-008	2.117533E-005	8	6.344599E-006	0.0009992	1467.431	0.0025871	0.0017669	0.0003678	-0.000441	-0.0006364	-0.0904336	4.926869E-008	2.641246E-007	-4.405548E-005	-3.659201E-005	-5.265957E-007	7.932249E-007	-7.827728E-005	4.746433E-005	-4.20696E-008	6.719233E-009	5.423416E-005	-7.121447E-006	-3.224592E-007	6.139177E-007	-1.178595E-005	-1.318773E-005	2.003717E-007	3.329947E-007	4.552464E-005	-5.266052E-006	1.88777E-007	-6.117594E-007	8.086485E-006	-4.001765E-005	1.767057E-008	3.011894E-007	-6.18843E-005	1.049912E-005	-1.634758E-007	2.116863E-007	-2.871177E-005	-1.56544E-005	-7.677955E-009	-1.48854E-007	3.145598E-005	2.833048E-005
	50	76	15.02404	132.2034	-113.6265	1	174.3236	-40.6785	-6.417004E-008	2.330992E-005	8	5.732229E-006	0.0009993	1467.522	0.001896	0.0017443	0.0003379	-0.0003937	-4.286634E-005	-0.0904432	-6.405026E-008	2.88256E-007	-9.346062E-005	3.744568E-005	-3.024848E-007	5.295777E-007	-3.000123E-005	1.34528E-005	-1.679127E-007	1.548224E-007	-2.881406E-005	5.5886E-006	-2.022712E-007	5.109026E-007	-1.28536E-006	2.468026E-005	1.873714E-007	1.288632E-007	-2.12986E-005	-5.015717E-005	-1.18956E-007	2.772356E-008	-3.865725E-006	-2.904482E-005	1.640683E-008	1.488246E-007	-5.241566E-005	-5.192417E-006	1.468006E-007	1.07254E-007	-2.737171E-005	-5.266671E-005	-1.322233E-007	1.217595E-007	1.332582E-005	4.353326E-005
	51	78	11.95791	146.0857	-127.0809	1	193.6249	-41.02024	-4.555276E-008	2.439201E-005	7	5.15691E-006	0.0009985	1466.889	0.0023493	0.0014958	0.0003063	-0.0003522	1.44644E-005	-0.0903746	5.843049E-009	2.535204E-007	-3.456673E-005	5.728734E-006	-1.853737E-007	5.223636E-007	-1.835018E-006	4.213603E-005	-6.958681E-008	4.988976E-008	-3.734961E-005	-2.609012E-005	-4.258305E-007	6.537077E-007	1.051626E-005	5.101734E-005	1.371018E-007	1.656836E-007	-6.28645E-006	-3.38498E-005	-6.567553E-008	1.500428E-008	-1.928145E-005	5.711454E-005	2.432339E-007	1.714789E-007	6.417696E-005	2.05702E-005	2.33249E-008	2.688175E-007	-1.824424E-005	-1.086484E-005	-5.138782E-008	-5.855783E-009	6.145645E-006	-2.50753E-005
	52	79	9.52744	161.4787	-142.1449	1	215.1291	-41.35649	-4.115282E-008	2.315963E-005	7	4.649356E-006	0.0010002	1466.98	0.0026475	0.0015403	0.0002795	-0.0003146	0.0004392	-0.0905279	-7.662357E-008	3.27889E-007	-5.798877E-005	-1.388277E-005	-1.589579E-007	4.205075E-007	2.238339E-005	3.418094E-005	-1.214026E-007	5.139134E-008	-1.427044E-005	-3.652477E-005	-1.989602E-007	3.085483E-007	-2.047308E-005	2.975007E-005	2.281013E-009	2.543992E-007	7.502305E-006	-3.468592E-006	-1.127901E-007	3.895556E-007	3.572886E-005	6.290031E-005	1.632543E-009	1.547182E-007	1.892041E-005	-1.820839E-005	-5.280002E-007	4.886206E-007	-4.478952E-005	5.189749E-005	-5.243738E-008	1.209298E-008	1.760939E-005	-1.938208E-005
	53	81	7.524077	179.1517	-159.6483	1	239.9644	-41.70533	-3.623194E-008	2.079909E-005	7	4.164143E-006	0.0009992	1466.889	0.0026319	0.0018959	0.0002532	-0.0002792	0.0008044	-0.0904379	4.944923E-008	3.212499E-007	-3.947152E-005	-2.006209E-006	-6.806205E-008	2.468707E-007	5.563852E-006	5.826576E-005	-3.064224E-008	-1.627677E-008	5.238584E-006	-3.140517E-005	-5.211699E-007	5.573552E-007	-3.057308E-005	0.0001105	7.091057E-008	1.018229E-007	4.183112E-005	-1.958539E-005	5.874881E-009	3.856928E-008	-2.036198E-005	3.492254E-005	-4.476989E-009	2.545031E-007	-6.843716E-006	4.101213E-005	-2.33988E-007	2.887171E-007	-3.243738E-005	4.879211E-005	-9.010342E-008	-3.620847E-008	-2.121767E-005	-2.9551E-005
	54	83	5.98659	198.6623	-178.8784	1	267.3279	-42.00032	-3.14654E-008	2.117031E-005	7	3.745181E-006	0.0010012	1466.889	0.0021125	0.0011751	0.0002298	-0.0002492	0.001101	-0.0906108	2.501838E-008	2.389438E-007	-5.891571E-005	-1.849406E-006	-1.955575E-007	3.264647E-007	1.941742E-005	-1.522588E-005	-1.228157E-007	1.670384E-008	2.077468E-007	-3.42857E-005	1.437797E-008	1.228065E-007	8.539962E-006	2.756872E-006	6.731807E-008	1.686714E-007	-2.254571E-005	2.65745E-005	-1.65137E-007	3.987353E-007	4.107277E-005	4.54548E-005	5.03112E-008	1.207441E-007	2.317999E-005	-5.632885E-006	-1.173953E-008	1.776933E-007	1.972937E-005	8.056857E-006	9.835094E-008	-4.324034E-008	2.870274E-006	-7.387599E-007
	55	85	4.76372	220.3862	-200.2738	1	297.7913	-42.26268	-2.771549E-008	2.294501E-005	7	3.35762E-006	0.0009999	1466.889	0.0028082	0.0011721	0.0002076	-0.0002219	0.0013096	-0.0904885	2.210618E-008	2.427548E-007	-4.175868E-005	5.3141E-006	-1.839794E-007	1.64503E-007	-6.062924E-006	4.85424E-005	-5.649077E-008	2.889681E-008	-2.949589E-005	7.804967E-006	-3.848917E-007	4.10184E-007	-8.610156E-006	4.365516E-005	4.029812E-008	9.352505E-008	5.064123E-006	-1.802557E-005	-3.096147E-008	5.961306E-008	9.567371E-006	-2.331536E-005	5.514471E-008	6.523851E-008	-1.385616E-005	-2.249795E-005	-3.100909E-007	3.542369E-007	-1.623092E-005	4.338604E-005	-1.871863E-007	9.330086E-008	-1.832317E-005	-3.04355E-006
	56	88	3.76506	245.3103	-225.0962	1	332.9346	-42.53942	-2.454463E-008	2.027923E-005	7	3.002872E-006	0.0009998	1466.889	0.0022396	0.0009007	0.0001869	-0.0001973	0.0014439	-0.0904765	5.988795E-009	1.62805E-007	-4.578217E-005	5.816768E-006	-2.253773E-008	1.235123E-007	-6.494493E-006	-8.619521E-007	-9.35279E-008	2.575587E-008	4.277221E-006	8.148045E-006	-2.248119E-007	3.958824E-007	1.688887E-005	3.665662E-005	4.664366E-008	1.394232E-007	1.723717E-005	7.032913E-006	7.867425E-008	-1.773935E-008	2.536783E-005	-9.744073E-007	2.296997E-008	5.144443E-008	4.612219E-006	2.43959E-005	-1.807823E-007	2.152328E-007	-2.332838E-006	2.801864E-005	-3.318315E-008	1.221474E-008	-1.850361E-005	-4.078405E-006
	57	91	3.008665	272.0364	-251.4808	1	370.4678	-42.75146	-2.130112E-008	2.198596E-005	7	2.699118E-006	0.0009999	1466.889	0.0023851	0.0009317	0.000169	-0.0001764	0.0015987	-0.0904898	1.136027E-008	1.828802E-007	-3.933886E-005	-2.49046E-006	-2.590832E-008	1.10472E-007	-4.456649E-006	2.226024E-006	-8.918847E-008	4.355746E-008	-2.138712E-005	5.536917E-007	-1.916769E-007	2.957027E-007	5.022121E-006	5.894543E-005	4.0852E-008	1.433002E-007	7.244911E-006	1.035754E-005	4.473964E-008	1.59676E-008	4.218586E-006	-1.684214E-005	-3.121227E-008	3.555226E-008	1.732461E-005	-2.053839E-006	-2.16646E-007	2.883601E-007	4.856065E-007	2.487561E-005	3.960622E-009	4.725018E-008	1.187717E-005	6.978007E-006
	58	93	2.38186	303.3506	-282.5139	1	414.5306	-42.9631	-1.86343E-008	2.19721E-005	7	2.413174E-006	0.0010003	1466.799	0.0025102	0.0008659	0.0001518	-0.000157	0.0016992	-0.090524	-1.590411E-008	1.631727E-007	-5.943121E-005	8.419369E-006	-4.549112E-008	1.485032E-007	-1.105265E-005	4.894255E-006	-7.331188E-008	5.367116E-008	-1.949868E-006	6.459207E-006	-2.403822E-007	2.776148E-007	-9.536299E-006	2.639723E-005	3.467585E-008	1.052559E-007	1.641202E-005	7.048811E-006	3.325454E-008	1.433307E-008	9.776064E-006	-1.044899E-005	1.640251E-008	7.676925E-008	1.001309E-005	5.951539E-006	-2.284505E-007	1.789468E-007	-7.580196E-006	2.450012E-005	-2.353454E-008	4.443871E-008	-1.384817E-005	7.444076E-006
	59	97	1.890121	338.1677	-316.7611	1	463.3519	-43.12794	-1.59937E-008	2.246111E-005	7	2.158751E-006	0.0010003	1466.799	0.0023019	0.0008654	0.0001364	-0.0001399	0.0018083	-0.0905153	-2.779189E-009	1.171559E-007	-4.032294E-005	-1.126886E-005	-3.121454E-008	1.362077E-007	-3.041116E-006	2.310841E-005	-6.673282E-008	4.228886E-008	-1.189092E-005	1.43222E-005	-1.9715E-007	2.34148E-007	-9.060045E-006	5.112747E-005	8.136567E-009	9.042276E-008	1.232107E-005	7.227457E-006	5.062873E-008	-3.222273E-008	4.085037E-006	1.608028E-006	1.423359E-009	7.932681E-008	1.850771E-006	-3.225821E-006	-1.392374E-007	1.610844E-007	-3.685565E-006	1.804292E-005	-5.496964E-008	5.091658E-008	-3.199411E-006	1.460172E-005
	60	101	1.502404	376.9714	-355.0214	1	517.8297	-43.2824	-1.372975E-008	2.181157E-005	7	1.931983E-006	0.0010004	1466.799	0.0020904	0.0010878	0.0001225	-0.0001248	0.0018898	-0.0905297	-6.128404E-009	1.320076E-007	-3.895357E-005	-5.179237E-006	-3.918934E-008	8.31304E-008	-5.182142E-006	2.069807E-005	-4.258869E-008	2.942085E-008	-2.110605E-005	-5.22009E-006	-1.660753E-007	1.889806E-007	-1.257352E-005	6.05837E-005	4.713354E-008	8.321558E-008	2.069363E-005	1.83453E-005	8.888833E-009	-1.378408E-008	-7.478372E-006	-1.192394E-005	1.696787E-008	8.995102E-008	2.039969E-005	-2.104207E-008	-9.149245E-008	1.190819E-007	-1.683588E-006	4.380739E-005	-8.775033E-009	3.610387E-008	2.641737E-007	-1.006807E-005
	61	106	1.195791	419.9977	-397.3303	1	578.1604	-43.41139	-1.141923E-008	2.234733E-005	7	1.729259E-006	0.0009998	1467.251	0.0023278	0.0008688	0.00011	-0.0001113	0.0019601	-0.0904694	1.219235E-008	1.240221E-007	-4.364005E-005	3.250602E-007	-3.718402E-008	8.318138E-008	6.473768E-006	2.797582E-005	-4.234347E-008	3.147653E-008	-8.75562E-006	2.702761E-006	-1.56062E-007	1.566E-007	-4.967414E-006	4.871048E-005	7.79869E-009	7.275014E-008	2.532755E-006	1.268828E-005	-1.147908E-008	3.230116E-008	1.722188E-006	-2.576984E-006	5.605102E-009	4.654089E-008	3.247786E-006	-6.861387E-006	-1.388915E-007	1.5694E-007	-9.92562E-006	2.471306E-005	-3.345395E-008	5.899528E-008	9.810992E-007	5.008714E-006
	62	111	0.9486946	469.1384	-445.8541	1	647.2068	-43.54228	-1.202993E-008	1.962335E-005	7	1.545192E-006	0.0010001	1466.799	0.0025154	0.0009113	0.0000985	-0.0000992	0.001991	-0.0904931	8.223878E-009	1.508801E-007	-2.508385E-005	4.265777E-006	-2.084687E-008	1.400375E-007	2.56618E-005	1.487728E-005	-2.068407E-008	3.584782E-008	-1.083585E-005	-1.103617E-005	-1.243542E-007	1.566754E-007	-1.523778E-005	5.270617E-005	7.001859E-009	7.456623E-008	5.83682E-006	-2.36421E-006	-1.708315E-008	3.570403E-008	-7.55155E-006	-1.50015E-005	1.748163E-009	5.420151E-008	-6.888359E-006	-6.172465E-006	-1.207709E-007	1.136085E-007	-1.378398E-005	3.185716E-005	-3.888614E-008	5.647905E-009	-1.749501E-005	-1.041479E-005
	63	117	0.7515633	524.566	-500.3564	1	724.9318	-43.64687	-1.023627E-008	2.002874E-005	7	1.379479E-006	0.001	1466.799	0.0022625	0.0009276	8.815491E-005	-8.841818E-005	0.0020041	-0.09049	-1.855835E-008	9.864524E-008	-4.376345E-005	-4.340589E-006	-3.584286E-008	7.359098E-008	8.415403E-006	1.005414E-005	-2.945433E-008	3.545085E-008	-2.271711E-005	2.623582E-006	-1.252054E-007	1.221738E-007	-1.296717E-005	5.06909E-005	9.910991E-009	4.784053E-008	2.199558E-005	-2.938857E-006	-4.601476E-009	2.056151E-008	1.580972E-006	-2.407187E-007	3.902187E-008	5.864939E-008	2.131004E-005	1.435751E-006	-1.110842E-007	9.71562E-008	6.519736E-006	2.401786E-005	-6.957408E-009	2.59227E-008	8.581066E-006	6.203053E-006
	64	123	0.5978954	585.7363	-560.2158	1	810.5114	-43.72423	-8.519482E-009	2.320133E-005	7	1.233886E-006	0.0010001	1466.799	0.0023105	0.000938	7.899199E-005	-7.894545E-005	0.0020433	-0.0904937	-1.421358E-008	8.29433E-008	-4.669606E-005	-8.866942E-006	-7.438303E-009	7.234279E-008	1.927011E-005	1.633418E-005	-2.1142E-008	9.303776E-009	-1.45983E-005	7.828226E-006	-9.476038E-008	1.165681E-007	-3.705883E-007	4.22971E-005	8.999564E-009	5.426739E-008	1.993334E-005	6.56375E-006	1.669071E-008	5.440194E-008	-3.106807E-006	-2.017137E-007	2.475917E-008	4.222065E-008	7.439176E-006	2.87126E-006	-1.121372E-007	9.655787E-008	-8.21965E-007	4.131589E-005	-2.003094E-008	1.233894E-008	-1.367624E-006	4.951058E-006
	65	131	0.4763719	653.843	-626.7244	1	905.7009	-43.78683	-7.498976E-009	2.217295E-005	7	1.104679E-006	0.0010005	1467.251	0.0021723	0.0007143	7.082108E-005	-7.057766E-005	0.0020742	-0.090532	1.598437E-010	8.535044E-008	-3.907483E-005	6.232483E-006	-2.87447E-008	4.936945E-008	3.524367E-006	1.221918E-005	-3.619392E-008	1.502758E-008	-1.679424E-005	2.429648E-006	-7.888572E-008	1.084588E-007	-3.125582E-006	4.298034E-005	-4.15787E-009	3.165724E-008	1.009626E-006	-8.050335E-006	-3.118316E-009	3.386612E-008	1.291463E-006	1.630281E-006	1.854477E-008	2.43013E-008	8.164733E-006	-1.033118E-006	-1.008176E-007	6.10496E-008	-1.106225E-005	5.435486E-006	7.154881E-010	1.011557E-008	-2.692533E-006	-3.748828E-006
	66	141	0.3780242	731.7955	-702.2457	1	1014.236	-43.81953	-6.290827E-009	2.334554E-005	7	9.863699E-007	0.0010004	1466.799	0.0021595	0.0010885	6.330246E-005	-6.29524E-005	0.0021172	-0.0905222	-1.379937E-008	6.342822E-008	-6.46556E-005	-1.913234E-006	-4.499976E-008	5.697913E-008	-9.290475E-006	3.516412E-005	-2.740507E-008	-1.312333E-008	-2.096674E-005	-1.394978E-005	-6.709616E-008	8.256843E-008	-2.804627E-006	5.288811E-005	4.884328E-009	4.30835E-008	7.696379E-006	5.453114E-006	-7.744121E-009	2.470989E-008	-1.209541E-005	2.971914E-006	7.594394E-009	3.543983E-008	7.609229E-006	2.039716E-006	-7.75686E-008	7.289236E-008	-3.534877E-006	2.055087E-005	-1.00743E-008	1.200831E-008	-5.077694E-006	-8.604217E-007
	67	153	0.3004808	817.8275	-785.6539	1	1134.061	-43.85052	-4.97332E-009	2.323855E-005	7	8.813028E-007	0.0009995	1466.799	0.0019138	0.0008503	5.660663E-005	-5.61994E-005	0.0021419	-0.0904346	-1.115791E-008	4.602053E-008	-4.434619E-005	1.586702E-005	-2.971569E-008	5.15992E-008	-2.450629E-006	3.238812E-005	-2.01083E-008	1.507473E-008	-3.791056E-006	1.015101E-005	-6.107326E-008	6.033837E-008	-1.676835E-005	3.79267E-005	3.585626E-009	2.304719E-008	-1.56636E-006	1.740357E-006	-1.940589E-008	1.360749E-008	-5.066507E-006	1.137974E-005	-1.946319E-010	2.385758E-008	2.542986E-006	-3.084162E-006	-5.197956E-008	7.1155E-008	-5.488633E-006	2.408024E-005	-5.15712E-009	6.942543E-009	3.408269E-006	-2.709412E-006
	68	168	0.238186	917.5046	-881.895	1	1272.617	-43.86628	-4.287672E-009	2.624168E-005	7	7.869214E-007	0.0010014	1466.98	0.0020191	0.0007712	4.701806E-005	-5.349916E-005	-0.004057	-0.090547	6.815696E-009	4.8257E-008	-4.452216E-005	1.584974E-005	-2.733805E-008	4.621052E-008	1.669272E-006	2.259341E-006	-2.36613E-008	5.508412E-010	-2.161537E-005	-1.546208E-005	-4.199115E-008	7.612846E-008	7.953553E-006	2.535241E-005	2.362327E-008	1.441796E-008	1.576175E-005	-1.302517E-005	-8.85433E-009	1.751981E-008	3.370027E-006	-1.048542E-006	5.897903E-009	3.350081E-008	1.011758E-005	3.031735E-006	-2.687347E-008	6.437281E-008	2.733235E-006	2.567739E-005	-6.208553E-009	9.535825E-009	2.160377E-006	-4.374812E-006
	69	186	0.1890121	1026.994	-987.257	1	1424.567	-43.86982	-3.925538E-009	2.312587E-005	7	7.016743E-007	0.0009996	1467.431	0.0016161	0.0009257	4.261008E-005	-4.709233E-005	-0.0027444	-0.0904283	-1.623681E-008	2.858299E-008	-6.577254E-005	-1.961137E-006	-2.252801E-008	4.935072E-008	7.97653E-006	3.280085E-005	-2.019823E-008	1.30137E-008	-3.062858E-006	1.294007E-005	-2.490441E-008	5.64082E-008	9.050033E-006	2.494891E-005	7.540734E-009	1.46911E-008	1.458505E-005	8.653842E-008	-1.611358E-008	2.360487E-008	-7.726231E-006	2.607494E-006	1.670804E-008	1.650756E-008	2.543187E-006	-8.795415E-006	-1.413457E-008	1.380286E-008	-5.987605E-006	1.484471E-005	-9.283668E-009	3.633403E-009	4.323061E-006	-5.070012E-006
	70	208	0.1502404	1149.424	-1104.218	1	1593.886	-43.85084	-4.026353E-009	2.231633E-005	7	6.273879E-007	0.001	1466.98	0.0017828	0.0010939	3.855419E-005	-4.169022E-005	-0.0017299	-0.0904906	1.12999E-009	3.458337E-008	-6.600681E-005	-7.039602E-006	-2.374111E-008	4.21815E-008	-1.15708E-005	4.114969E-005	-2.531073E-008	-2.786116E-009	-3.384198E-005	2.505723E-006	-3.061268E-008	4.773634E-008	9.909694E-006	3.954659E-005	1.353192E-008	1.989515E-008	1.461558E-005	2.205488E-006	-6.970937E-009	2.622262E-008	5.789625E-007	4.181331E-006	6.631922E-009	2.124398E-008	9.832533E-006	-7.135354E-006	-1.466702E-008	2.6999E-008	6.50579E-006	1.646132E-005	-6.211225E-009	7.157581E-009	-4.060182E-006	6.453312E-006
	71	235	0.1193355	1287.49	-1237.407	1	1785.723	-43.86367	-7.246409E-009	2.384834E-005	7	5.600113E-007	0.001	1467.522	0.0024018	0.0008322	3.475404E-005	-3.689542E-005	-0.0009171	-0.0905065	-9.794577E-009	5.500307E-008	-4.933677E-005	-9.198272E-006	-2.560802E-008	5.165057E-008	-7.27458E-006	2.98012E-005	-1.104832E-008	2.199774E-008	-1.679975E-006	1.278223E-005	-3.214422E-008	5.794519E-008	8.254137E-007	2.770806E-005	-2.327056E-009	3.133044E-008	1.071274E-005	1.004312E-005	-1.487007E-008	2.993562E-008	4.761081E-006	1.945302E-005	5.559002E-010	1.745093E-008	-1.906308E-006	1.456428E-007	-1.745804E-008	2.40635E-008	1.3715E-006	2.278992E-005	1.492708E-010	9.241631E-009	1.090184E-005	4.328293E-006
	72	266	0.0946587	1442.528	-1386.68	1	2000.942	-43.86914	-9.757551E-009	2.409498E-005	6	4.981362E-007	0.0009967	1467.251	0.0032577	0.0006119	3.103376E-005	-3.270575E-005	-0.0005903	-0.0902124	4.078515E-010	8.263403E-008	-3.1432E-005	-1.036702E-005	-2.102175E-008	6.550665E-008	-1.550428E-005	1.468134E-005	-1.868986E-008	3.264115E-008	-1.044147E-005	2.917454E-006	-2.452325E-008	5.417647E-008	1.084176E-006	2.433313E-005	3.373742E-009	3.138523E-008	6.443919E-006	8.339675E-006	-1.350853E-008	3.489752E-008	4.758465E-006	9.988409E-006	-2.181651E-010	3.06128E-008	-4.783074E-006	7.18535E-006	-2.158834E-008	3.096645E-008	-4.291415E-006	2.093675E-005	5.405525E-010	1.734972E-008	7.346644E-007	-4.432216E-006
